,Time (s),Power (Watts)
0,0.001,3.95113e-06
1,0.002,3.91959e-06
2,0.004,4.00792e-06
3,0.006,4.0584e-06
4,0.007,4.06628e-06
5,0.009,4.02842e-06
6,0.01,3.95429e-06
7,0.012,3.92905e-06
8,0.014,3.96533e-06
9,0.015,4.01896e-06
10,0.016,4.07101e-06
11,0.017,4.07259e-06
12,0.019,3.99057e-06
13,0.021,3.91643e-06
14,0.023,3.91959e-06
15,0.024,3.95744e-06
16,0.025,4.00792e-06
17,0.026,4.06471e-06
18,0.027,4.08521e-06
19,0.028,4.06786e-06
20,0.029,4.03e-06
21,0.03,3.99057e-06
22,0.031,3.95429e-06
23,0.032,3.92905e-06
24,0.034,3.96691e-06
25,0.035,4.01738e-06
26,0.036,4.06628e-06
27,0.037,4.07259e-06
28,0.039,4.03473e-06
29,0.04,3.98899e-06
30,0.041,3.94798e-06
31,0.042,3.91801e-06
32,0.044,4.00792e-06
33,0.046,4.08521e-06
34,0.048,4.06944e-06
35,0.049,3.98899e-06
36,0.051,3.95271e-06
37,0.052,3.92116e-06
38,0.053,3.96375e-06
39,0.055,4.01738e-06
40,0.056,4.09468e-06
41,0.058,4.06944e-06
42,0.059,3.98899e-06
43,0.061,3.94798e-06
44,0.062,3.91012e-06
45,0.063,3.95587e-06
46,0.065,4.0584e-06
47,0.067,4.06786e-06
48,0.069,3.99372e-06
49,0.071,3.92432e-06
50,0.073,3.96533e-06
51,0.075,4.07101e-06
52,0.077,4.07101e-06
53,0.079,3.98899e-06
54,0.081,3.91801e-06
55,0.083,3.95587e-06
56,0.085,4.0584e-06
57,0.087,4.06628e-06
58,0.089,3.99057e-06
59,0.091,3.92116e-06
60,0.093,3.96375e-06
61,0.095,4.01896e-06
62,0.096,4.0931e-06
63,0.098,4.02842e-06
64,0.1,3.94798e-06
65,0.102,3.91801e-06
66,0.104,4.00792e-06
67,0.106,4.08837e-06
68,0.108,4.02842e-06
69,0.11,3.98741e-06
70,0.111,3.92274e-06
71,0.113,3.97006e-06
72,0.115,4.06944e-06
73,0.117,4.07417e-06
74,0.119,3.98741e-06
75,0.121,3.91959e-06
76,0.123,3.95744e-06
77,0.125,4.06471e-06
78,0.127,4.06628e-06
79,0.129,3.99215e-06
80,0.131,3.92274e-06
81,0.133,3.96848e-06
82,0.135,4.06944e-06
83,0.137,4.09468e-06
84,0.138,4.03316e-06
85,0.14,3.94798e-06
86,0.142,3.92116e-06
87,0.144,4.01265e-06
88,0.146,4.08521e-06
89,0.149,4.02527e-06
90,0.15,3.95271e-06
91,0.152,3.92905e-06
92,0.154,4.02369e-06
93,0.156,4.09468e-06
94,0.158,4.03316e-06
95,0.16,3.9464e-06
96,0.162,3.92274e-06
97,0.164,4.01107e-06
98,0.166,4.08363e-06
99,0.168,4.02685e-06
100,0.17,3.95429e-06
101,0.172,3.93063e-06
102,0.174,4.02369e-06
103,0.176,4.09152e-06
104,0.178,4.02842e-06
105,0.18,3.94956e-06
106,0.182,3.92116e-06
107,0.184,4.01265e-06
108,0.186,4.08521e-06
109,0.188,4.02527e-06
110,0.19,3.95429e-06
111,0.192,3.93063e-06
112,0.194,4.02685e-06
113,0.196,4.0931e-06
114,0.198,4.02685e-06
115,0.2,3.9464e-06
116,0.202,3.91959e-06
117,0.204,4.01265e-06
118,0.206,4.08521e-06
119,0.208,4.02369e-06
120,0.21,3.94956e-06
121,0.212,3.9259e-06
122,0.214,4.02527e-06
123,0.216,4.0931e-06
124,0.218,4.03e-06
125,0.22,3.9464e-06
126,0.222,3.91959e-06
127,0.224,4.01896e-06
128,0.226,4.08521e-06
129,0.228,4.02527e-06
130,0.23,3.95113e-06
131,0.232,3.93063e-06
132,0.234,4.02369e-06
133,0.236,4.08837e-06
134,0.238,4.03e-06
135,0.24,3.94325e-06
136,0.242,3.92116e-06
137,0.244,4.01423e-06
138,0.246,4.08363e-06
139,0.248,4.02212e-06
140,0.25,3.95429e-06
141,0.252,3.92274e-06
142,0.253,3.97637e-06
143,0.255,4.07259e-06
144,0.257,4.07259e-06
145,0.259,3.98584e-06
146,0.261,3.91328e-06
147,0.263,3.96375e-06
148,0.265,4.06471e-06
149,0.267,4.06471e-06
150,0.269,3.99057e-06
151,0.271,3.92747e-06
152,0.273,3.97164e-06
153,0.275,4.07259e-06
154,0.277,4.06944e-06
155,0.279,3.98741e-06
156,0.281,3.91643e-06
157,0.283,3.96375e-06
158,0.285,4.06786e-06
159,0.287,4.06628e-06
160,0.289,3.98899e-06
161,0.291,3.92432e-06
162,0.293,3.97322e-06
163,0.295,4.07259e-06
164,0.297,4.06944e-06
165,0.299,4.02527e-06
166,0.3,3.94482e-06
167,0.302,3.92274e-06
168,0.304,4.01738e-06
169,0.306,4.08679e-06
170,0.308,4.02054e-06
171,0.31,3.95113e-06
172,0.312,3.93063e-06
173,0.314,4.02527e-06
174,0.316,4.09468e-06
175,0.318,4.02527e-06
176,0.32,3.94956e-06
177,0.322,3.9259e-06
178,0.324,4.01738e-06
179,0.326,4.08521e-06
180,0.328,4.02527e-06
181,0.33,3.99372e-06
182,0.339,3.98741e-06
183,0.343,3.92905e-06
184,0.344,3.96375e-06
185,0.345,4.01896e-06
186,0.346,4.06471e-06
187,0.347,4.08363e-06
188,0.348,4.06944e-06
189,0.349,4.02685e-06
190,0.35,3.99057e-06
191,0.351,3.95113e-06
192,0.352,3.92274e-06
193,0.353,3.93221e-06
194,0.354,3.97479e-06
195,0.355,4.02842e-06
196,0.356,4.07575e-06
197,0.357,4.09468e-06
198,0.384,3.97006e-06
199,0.385,4.01896e-06
200,0.386,4.06628e-06
201,0.387,4.0931e-06
202,0.388,4.06471e-06
203,0.389,4.02685e-06
204,0.39,3.99057e-06
205,0.391,3.95113e-06
206,0.392,3.92905e-06
207,0.393,3.93536e-06
208,0.394,3.97322e-06
209,0.395,4.03158e-06
210,0.396,4.07732e-06
211,0.397,4.09468e-06
212,0.398,4.02527e-06
213,0.409,4.02369e-06
214,0.41,3.99215e-06
215,0.411,3.95113e-06
216,0.412,3.92116e-06
217,0.413,3.93694e-06
218,0.414,3.97637e-06
219,0.415,4.03158e-06
220,0.416,4.07417e-06
221,0.417,4.10256e-06
222,0.418,4.06786e-06
223,0.419,4.02527e-06
224,0.42,3.98426e-06
225,0.421,3.94956e-06
226,0.422,3.91485e-06
227,0.423,3.9259e-06
228,0.424,3.96691e-06
229,0.425,4.02054e-06
230,0.426,4.06944e-06
231,0.427,4.08837e-06
232,0.428,4.06155e-06
233,0.429,4.02842e-06
234,0.43,3.98741e-06
235,0.431,3.95113e-06
236,0.448,4.02527e-06
237,0.45,3.98584e-06
238,0.451,3.95113e-06
239,0.452,3.92747e-06
240,0.453,3.93694e-06
241,0.454,3.9811e-06
242,0.455,4.03e-06
243,0.456,4.0789e-06
244,0.457,4.09783e-06
245,0.458,4.06944e-06
246,0.459,4.02685e-06
247,0.46,3.98899e-06
248,0.461,3.94482e-06
249,0.462,3.91643e-06
250,0.463,3.93063e-06
251,0.464,3.97006e-06
252,0.465,4.02212e-06
253,0.466,4.06944e-06
254,0.467,4.08994e-06
255,0.468,4.06471e-06
256,0.469,4.02212e-06
257,0.47,3.99057e-06
258,0.471,3.95113e-06
259,0.472,3.9259e-06
260,0.473,3.93851e-06
261,0.474,3.97953e-06
262,0.475,4.03789e-06
263,0.476,4.0789e-06
264,0.477,4.09783e-06
265,0.478,4.06944e-06
266,0.479,4.02212e-06
267,0.48,3.98741e-06
268,0.481,3.9464e-06
269,0.482,3.91801e-06
270,0.483,3.92747e-06
271,0.484,3.97322e-06
272,0.485,4.02842e-06
273,0.486,4.07101e-06
274,0.487,4.08994e-06
275,0.488,4.06471e-06
276,0.489,4.02369e-06
277,0.49,3.99215e-06
278,0.491,3.95271e-06
279,0.492,3.92747e-06
280,0.493,3.93851e-06
281,0.494,3.98268e-06
282,0.495,4.03473e-06
283,0.496,4.08206e-06
284,0.497,4.09941e-06
285,0.498,4.06628e-06
286,0.499,4.02527e-06
287,0.5,3.98741e-06
288,0.501,3.91801e-06
289,0.503,3.97006e-06
290,0.505,4.02685e-06
291,0.506,4.07417e-06
292,0.507,4.08994e-06
293,0.508,4.06628e-06
294,0.509,4.03158e-06
295,0.51,3.98899e-06
296,0.511,3.95271e-06
297,0.512,3.93063e-06
298,0.513,3.94009e-06
299,0.514,3.98268e-06
300,0.515,4.03789e-06
301,0.516,4.08363e-06
302,0.517,4.09941e-06
303,0.518,4.06786e-06
304,0.519,4.02842e-06
305,0.52,3.98741e-06
306,0.521,3.94798e-06
307,0.522,3.92116e-06
308,0.523,3.93221e-06
309,0.524,3.97479e-06
310,0.525,4.07417e-06
311,0.527,4.08994e-06
312,0.528,4.06786e-06
313,0.529,4.02842e-06
314,0.53,3.99845e-06
315,0.531,3.95744e-06
316,0.532,3.92905e-06
317,0.533,3.94325e-06
318,0.534,3.98584e-06
319,0.535,4.03789e-06
320,0.536,4.08521e-06
321,0.537,4.10414e-06
322,0.538,4.07417e-06
323,0.539,4.03473e-06
324,0.54,3.99215e-06
325,0.541,3.9464e-06
326,0.542,3.92905e-06
327,0.543,3.93694e-06
328,0.544,4.02685e-06
329,0.546,4.07732e-06
330,0.547,4.09625e-06
331,0.548,4.06944e-06
332,0.549,4.03e-06
333,0.55,3.99372e-06
334,0.551,3.95744e-06
335,0.552,3.93221e-06
336,0.553,3.9464e-06
337,0.554,3.98899e-06
338,0.555,4.04262e-06
339,0.556,4.08679e-06
340,0.557,4.10572e-06
341,0.558,4.07575e-06
342,0.559,4.03316e-06
343,0.56,3.99372e-06
344,0.561,3.95744e-06
345,0.562,3.92432e-06
346,0.563,3.93851e-06
347,0.564,3.98426e-06
348,0.565,4.03473e-06
349,0.566,4.08206e-06
350,0.567,4.10099e-06
351,0.568,4.06944e-06
352,0.569,4.03316e-06
353,0.57,4.00161e-06
354,0.571,3.9606e-06
355,0.572,3.93694e-06
356,0.573,3.95113e-06
357,0.574,3.99372e-06
358,0.575,4.04578e-06
359,0.576,4.08994e-06
360,0.577,4.11045e-06
361,0.578,4.0789e-06
362,0.579,4.03631e-06
363,0.58,3.9953e-06
364,0.581,3.95744e-06
365,0.582,3.92905e-06
366,0.583,3.94482e-06
367,0.584,3.9811e-06
368,0.585,4.03947e-06
369,0.586,4.08521e-06
370,0.587,4.10099e-06
371,0.588,4.07575e-06
372,0.589,4.00319e-06
373,0.591,3.9606e-06
374,0.592,3.95429e-06
375,0.594,4.05209e-06
376,0.596,4.10887e-06
377,0.598,4.07732e-06
378,0.599,4.00003e-06
379,0.601,3.95902e-06
380,0.602,3.94325e-06
381,0.604,4.04104e-06
382,0.606,4.08679e-06
383,0.607,4.08048e-06
384,0.609,4.03631e-06
385,0.61,3.96533e-06
386,0.612,3.94482e-06
387,0.613,4.00003e-06
388,0.615,4.05209e-06
389,0.616,4.1136e-06
390,0.618,4.04578e-06
391,0.62,3.9606e-06
392,0.622,3.94956e-06
393,0.624,4.04578e-06
394,0.626,4.08994e-06
395,0.627,4.08206e-06
396,0.629,4.04262e-06
397,0.63,3.97164e-06
398,0.632,3.95902e-06
399,0.634,4.00319e-06
400,0.636,4.10099e-06
401,0.637,4.11676e-06
402,0.638,4.0442e-06
403,0.64,3.96375e-06
404,0.642,3.94009e-06
405,0.643,3.99688e-06
406,0.645,4.05366e-06
407,0.646,4.09625e-06
408,0.647,4.11203e-06
409,0.648,4.05051e-06
410,0.65,4.01265e-06
411,0.651,3.94798e-06
412,0.653,3.96375e-06
413,0.654,4.05997e-06
414,0.656,4.10572e-06
415,0.657,4.08679e-06
416,0.659,4.0095e-06
417,0.661,3.97164e-06
418,0.662,3.95744e-06
419,0.664,4.00319e-06
420,0.665,4.09783e-06
421,0.667,4.08521e-06
422,0.669,4.01423e-06
423,0.671,3.95271e-06
424,0.673,4.01265e-06
425,0.675,4.10887e-06
426,0.677,4.0931e-06
427,0.679,4.01423e-06
428,0.681,3.94482e-06
429,0.683,4.00161e-06
430,0.685,4.10099e-06
431,0.687,4.08994e-06
432,0.689,4.01581e-06
433,0.691,3.95429e-06
434,0.693,4.01423e-06
435,0.695,4.1136e-06
436,0.698,4.09783e-06
437,0.699,4.01265e-06
438,0.701,3.9464e-06
439,0.703,4.00634e-06
440,0.705,4.10414e-06
441,0.707,4.0931e-06
442,0.709,4.01738e-06
443,0.711,3.95587e-06
444,0.713,4.01738e-06
445,0.715,4.11518e-06
446,0.717,4.09783e-06
447,0.719,4.01738e-06
448,0.721,3.94798e-06
449,0.723,4.01265e-06
450,0.725,4.10729e-06
451,0.728,4.05524e-06
452,0.73,3.98899e-06
453,0.732,3.97322e-06
454,0.734,4.07417e-06
455,0.736,4.13096e-06
456,0.738,4.0584e-06
457,0.74,3.97637e-06
458,0.742,3.96848e-06
459,0.744,4.06313e-06
460,0.746,4.12149e-06
461,0.748,4.05997e-06
462,0.75,3.97953e-06
463,0.752,3.97479e-06
464,0.754,4.07101e-06
465,0.756,4.13096e-06
466,0.758,4.06155e-06
467,0.76,3.97479e-06
468,0.762,3.96691e-06
469,0.764,4.06313e-06
470,0.766,4.12465e-06
471,0.768,4.05524e-06
472,0.77,3.9811e-06
473,0.772,3.97637e-06
474,0.774,4.07259e-06
475,0.776,4.12622e-06
476,0.778,4.05524e-06
477,0.78,3.97322e-06
478,0.782,3.96533e-06
479,0.784,4.06471e-06
480,0.786,4.1278e-06
481,0.788,4.05682e-06
482,0.79,3.97953e-06
483,0.792,3.97479e-06
484,0.794,4.07575e-06
485,0.796,4.13569e-06
486,0.798,4.0584e-06
487,0.8,3.97795e-06
488,0.802,3.96848e-06
489,0.804,4.06471e-06
490,0.806,4.12465e-06
491,0.808,4.05682e-06
492,0.81,3.9811e-06
493,0.812,3.9811e-06
494,0.814,4.07417e-06
495,0.816,4.12938e-06
496,0.818,4.0584e-06
497,0.82,3.97637e-06
498,0.822,3.96848e-06
499,0.824,4.06786e-06
500,0.826,4.12622e-06
501,0.828,4.05997e-06
502,0.83,3.9811e-06
503,0.832,3.97637e-06
504,0.834,4.07732e-06
505,0.836,4.13411e-06
506,0.838,4.05997e-06
507,0.84,3.97637e-06
508,0.842,3.97164e-06
509,0.844,4.07259e-06
510,0.846,4.12938e-06
511,0.848,4.0584e-06
512,0.85,3.98584e-06
513,0.852,3.97795e-06
514,0.854,4.07732e-06
515,0.856,4.13411e-06
516,0.858,4.06155e-06
517,0.86,3.97795e-06
518,0.862,3.97164e-06
519,0.864,4.07101e-06
520,0.866,4.1278e-06
521,0.868,4.06155e-06
522,0.87,3.98426e-06
523,0.872,3.9811e-06
524,0.874,4.08048e-06
525,0.876,4.13884e-06
526,0.878,4.06313e-06
527,0.88,3.98268e-06
528,0.882,3.97479e-06
529,0.884,4.07417e-06
530,0.886,4.12938e-06
531,0.888,4.06313e-06
532,0.89,3.98741e-06
533,0.892,3.98584e-06
534,0.894,4.08837e-06
535,0.896,4.142e-06
536,0.898,4.06471e-06
537,0.9,3.98268e-06
538,0.902,3.97795e-06
539,0.904,4.07732e-06
540,0.906,4.13727e-06
541,0.908,4.06628e-06
542,0.91,3.98584e-06
543,0.912,3.99215e-06
544,0.914,4.08679e-06
545,0.916,4.14357e-06
546,0.918,4.06628e-06
547,0.92,3.98584e-06
548,0.922,3.98268e-06
549,0.924,4.07732e-06
550,0.926,4.13569e-06
551,0.928,4.06944e-06
552,0.93,3.99372e-06
553,0.932,3.99057e-06
554,0.934,4.09152e-06
555,0.936,4.14357e-06
556,0.938,4.07259e-06
557,0.94,3.98741e-06
558,0.942,3.98268e-06
559,0.944,4.08206e-06
560,0.946,4.13884e-06
561,0.948,4.07101e-06
562,0.95,3.99372e-06
563,0.952,3.9953e-06
564,0.954,4.09468e-06
565,0.956,4.14357e-06
566,0.958,4.07259e-06
567,0.96,3.98899e-06
568,0.962,3.99057e-06
569,0.964,4.08521e-06
570,0.966,4.13569e-06
571,0.968,4.06786e-06
572,0.97,3.99372e-06
573,0.972,3.99688e-06
574,0.974,4.09783e-06
575,0.976,4.13884e-06
576,0.978,4.11518e-06
577,0.98,4.03789e-06
578,0.981,3.97164e-06
579,0.983,4.03473e-06
580,0.985,4.13253e-06
581,0.987,4.11045e-06
582,0.989,4.03789e-06
583,0.991,3.97953e-06
584,0.993,4.04893e-06
585,0.995,4.14357e-06
586,0.997,4.11834e-06
587,0.999,4.03789e-06
588,1.001,3.97479e-06
589,1.003,4.03947e-06
590,1.005,4.13884e-06
591,1.007,4.11203e-06
592,1.009,4.04104e-06
593,1.011,3.9811e-06
594,1.013,4.04735e-06
595,1.015,4.14357e-06
596,1.017,4.11991e-06
597,1.019,4.0442e-06
598,1.021,4.00003e-06
599,1.022,3.99372e-06
600,1.024,4.09783e-06
601,1.026,4.15146e-06
602,1.028,4.0789e-06
603,1.03,3.99845e-06
604,1.032,4.00476e-06
605,1.034,4.10572e-06
606,1.036,4.15777e-06
607,1.038,4.08363e-06
608,1.04,3.99845e-06
609,1.042,3.99688e-06
610,1.044,4.09625e-06
611,1.046,4.14673e-06
612,1.048,4.0789e-06
613,1.05,3.99845e-06
614,1.052,3.98268e-06
615,1.053,4.05209e-06
616,1.055,4.14831e-06
617,1.057,4.12307e-06
618,1.059,4.04262e-06
619,1.061,3.97953e-06
620,1.063,4.04735e-06
621,1.065,4.13884e-06
622,1.067,4.11991e-06
623,1.069,4.03789e-06
624,1.071,3.9811e-06
625,1.073,4.05209e-06
626,1.075,4.15462e-06
627,1.077,4.12465e-06
628,1.079,4.0442e-06
629,1.081,3.9811e-06
630,1.083,4.0442e-06
631,1.085,4.14673e-06
632,1.087,4.11834e-06
633,1.089,4.0442e-06
634,1.091,3.98584e-06
635,1.093,4.05524e-06
636,1.095,4.15462e-06
637,1.097,4.12622e-06
638,1.099,4.04735e-06
639,1.101,3.9811e-06
640,1.103,4.05051e-06
641,1.105,4.14357e-06
642,1.107,4.11991e-06
643,1.109,4.0789e-06
644,1.111,4.00003e-06
645,1.112,4.00634e-06
646,1.114,4.11518e-06
647,1.116,4.16093e-06
648,1.118,4.08363e-06
649,1.12,4.00476e-06
650,1.122,4.00319e-06
651,1.124,4.10414e-06
652,1.126,4.14831e-06
653,1.128,4.08048e-06
654,1.13,4.00003e-06
655,1.132,4.00792e-06
656,1.134,4.11834e-06
657,1.136,4.16408e-06
658,1.138,4.08363e-06
659,1.14,4.00003e-06
660,1.142,4.00319e-06
661,1.144,4.10572e-06
662,1.146,4.15146e-06
663,1.148,4.08363e-06
664,1.15,4.00476e-06
665,1.152,4.0095e-06
666,1.154,4.11518e-06
667,1.156,4.1625e-06
668,1.158,4.08837e-06
669,1.16,4.00319e-06
670,1.162,4.00319e-06
671,1.164,4.10414e-06
672,1.166,4.15462e-06
673,1.168,4.08363e-06
674,1.17,4.0095e-06
675,1.172,4.01265e-06
676,1.174,4.1136e-06
677,1.176,4.1625e-06
678,1.178,4.08679e-06
679,1.18,4.00476e-06
680,1.182,4.00634e-06
681,1.184,4.11203e-06
682,1.186,4.15304e-06
683,1.188,4.08048e-06
684,1.19,4.00319e-06
685,1.192,4.01265e-06
686,1.194,4.1136e-06
687,1.196,4.1625e-06
688,1.198,4.08521e-06
689,1.2,4.00161e-06
690,1.202,4.00634e-06
691,1.204,4.10572e-06
692,1.206,4.15619e-06
693,1.208,4.08521e-06
694,1.21,4.00319e-06
695,1.212,4.01423e-06
696,1.214,4.11518e-06
697,1.216,4.16408e-06
698,1.218,4.08679e-06
699,1.22,4.00319e-06
700,1.222,4.00792e-06
701,1.224,4.11203e-06
702,1.226,4.15462e-06
703,1.228,4.08521e-06
704,1.23,4.00634e-06
705,1.232,4.01265e-06
706,1.234,4.11518e-06
707,1.236,4.1625e-06
708,1.238,4.08679e-06
709,1.24,4.00319e-06
710,1.242,4.0095e-06
711,1.244,4.10729e-06
712,1.246,4.15304e-06
713,1.248,4.08521e-06
714,1.25,4.00476e-06
715,1.252,4.01581e-06
716,1.254,4.11991e-06
717,1.256,4.16408e-06
718,1.258,4.08994e-06
719,1.261,4.00634e-06
720,1.263,4.0095e-06
721,1.265,4.10887e-06
722,1.266,4.15777e-06
723,1.268,4.08363e-06
724,1.27,4.00792e-06
725,1.272,4.01896e-06
726,1.274,4.12149e-06
727,1.276,4.16724e-06
728,1.278,4.08994e-06
729,1.28,4.00634e-06
730,1.282,4.01265e-06
731,1.284,4.1136e-06
732,1.286,4.15619e-06
733,1.288,4.08521e-06
734,1.29,4.0095e-06
735,1.292,4.02527e-06
736,1.294,4.12307e-06
737,1.296,4.16881e-06
738,1.298,4.09468e-06
739,1.3,4.01265e-06
740,1.302,4.01423e-06
741,1.304,4.1136e-06
742,1.306,4.15935e-06
743,1.308,4.08837e-06
744,1.311,4.01107e-06
745,1.313,4.02054e-06
746,1.314,4.11991e-06
747,1.316,4.16566e-06
748,1.318,4.09625e-06
749,1.32,4.00792e-06
750,1.322,4.01265e-06
751,1.324,4.1136e-06
752,1.326,4.15777e-06
753,1.328,4.08521e-06
754,1.33,4.00792e-06
755,1.332,3.99845e-06
756,1.333,4.02054e-06
757,1.334,4.12622e-06
758,1.336,4.16408e-06
759,1.337,4.13096e-06
760,1.339,4.05524e-06
761,1.341,3.99372e-06
762,1.343,4.06628e-06
763,1.345,4.15619e-06
764,1.347,4.15935e-06
765,1.348,4.08521e-06
766,1.35,4.05051e-06
767,1.351,3.9953e-06
768,1.353,4.02527e-06
769,1.354,4.07417e-06
770,1.355,4.12622e-06
771,1.356,4.16566e-06
772,1.357,4.16724e-06
773,1.358,4.08994e-06
774,1.36,4.00792e-06
775,1.362,3.98899e-06
776,1.363,4.01423e-06
777,1.364,4.06313e-06
778,1.365,4.15619e-06
779,1.367,4.04735e-06
780,1.371,3.99845e-06
781,1.374,4.07575e-06
782,1.376,4.17355e-06
783,1.38,4.05051e-06
784,1.381,3.99215e-06
785,1.403,4.06786e-06
786,1.406,4.15462e-06
787,1.416,4.16566e-06
788,1.417,4.11834e-06
789,1.427,4.15619e-06
790,1.428,4.11991e-06
791,1.432,4.00161e-06
792,1.433,4.02212e-06
793,1.434,4.12622e-06
794,1.438,4.12938e-06
795,1.44,4.00319e-06
796,1.445,4.12307e-06
797,1.446,4.15777e-06
798,1.447,4.1625e-06
799,1.455,4.16724e-06
800,1.471,4.01107e-06
801,1.472,4.00319e-06
802,1.473,4.02842e-06
803,1.474,4.07575e-06
804,1.475,4.12938e-06
805,1.476,4.16724e-06
806,1.477,4.16881e-06
807,1.478,4.13096e-06
808,1.479,4.09152e-06
809,1.48,4.05051e-06
810,1.481,4.00792e-06
811,1.482,3.9953e-06
812,1.483,4.01896e-06
813,1.484,4.06786e-06
814,1.485,4.11991e-06
815,1.486,4.15935e-06
816,1.487,4.15935e-06
817,1.488,4.12465e-06
818,1.489,4.08679e-06
819,1.49,4.05524e-06
820,1.491,4.01107e-06
821,1.492,3.99845e-06
822,1.493,4.02842e-06
823,1.494,4.0789e-06
824,1.495,4.12938e-06
825,1.496,4.17039e-06
826,1.497,4.17355e-06
827,1.498,4.13096e-06
828,1.499,4.08994e-06
829,1.5,4.05682e-06
830,1.501,4.0095e-06
831,1.502,3.99845e-06
832,1.503,4.02212e-06
833,1.504,4.06944e-06
834,1.505,4.12149e-06
835,1.506,4.15935e-06
836,1.507,4.15935e-06
837,1.508,4.12465e-06
838,1.509,4.08994e-06
839,1.51,4.05209e-06
840,1.511,4.00792e-06
841,1.512,4.00003e-06
842,1.513,4.02369e-06
843,1.514,4.08363e-06
844,1.515,4.13096e-06
845,1.516,4.17039e-06
846,1.517,4.16881e-06
847,1.518,4.13253e-06
848,1.519,4.09468e-06
849,1.52,4.04893e-06
850,1.521,4.00792e-06
851,1.522,3.9953e-06
852,1.523,4.02212e-06
853,1.524,4.07101e-06
854,1.525,4.11991e-06
855,1.526,4.16408e-06
856,1.527,4.15619e-06
857,1.528,4.12465e-06
858,1.529,4.08679e-06
859,1.53,4.04893e-06
860,1.531,4.00792e-06
861,1.532,3.99845e-06
862,1.533,4.02527e-06
863,1.534,4.08206e-06
864,1.535,4.1278e-06
865,1.536,4.16881e-06
866,1.537,4.17039e-06
867,1.538,4.13253e-06
868,1.539,4.09152e-06
869,1.54,4.05209e-06
870,1.541,4.01738e-06
871,1.542,3.9953e-06
872,1.543,4.02527e-06
873,1.544,4.07101e-06
874,1.545,4.12465e-06
875,1.546,4.15935e-06
876,1.547,4.16093e-06
877,1.548,4.1278e-06
878,1.549,4.08521e-06
879,1.55,4.05209e-06
880,1.551,4.0095e-06
881,1.552,4.00003e-06
882,1.553,4.02842e-06
883,1.554,4.07732e-06
884,1.555,4.13884e-06
885,1.556,4.17197e-06
886,1.557,4.16724e-06
887,1.558,4.09625e-06
888,1.56,4.0095e-06
889,1.562,3.99688e-06
890,1.563,4.02369e-06
891,1.564,4.07101e-06
892,1.565,4.12307e-06
893,1.566,4.16093e-06
894,1.567,4.15777e-06
895,1.568,4.12307e-06
896,1.569,4.08679e-06
897,1.57,4.04578e-06
898,1.571,4.0095e-06
899,1.572,4.00161e-06
900,1.573,4.02842e-06
901,1.574,4.07732e-06
902,1.575,4.13411e-06
903,1.576,4.17039e-06
904,1.577,4.17197e-06
905,1.578,4.13253e-06
906,1.579,4.09625e-06
907,1.58,4.05209e-06
908,1.581,4.01581e-06
909,1.582,3.99845e-06
910,1.583,4.02212e-06
911,1.584,4.07259e-06
912,1.585,4.12465e-06
913,1.586,4.15935e-06
914,1.588,4.08837e-06
915,1.59,4.01107e-06
916,1.592,4.03158e-06
917,1.594,4.13569e-06
918,1.596,4.16881e-06
919,1.598,4.0931e-06
920,1.6,4.01107e-06
921,1.602,4.02842e-06
922,1.604,4.12938e-06
